# Pulseq sequence file
# Created by MATLAB mr toolbox

[VERSION]
major 1
minor 4
revision 1

[DEFINITIONS]
#   ------------------------  
#  Setup params of sequence  
#  ~------------------------  
# NumAverages 10 
# PhysicalAxis x 
# TimeBetweenGrads 0.05 
# TransferFuncPosBWHz 5000 
# TransferFuncResHz 1 
#~------------------------  
AdcRasterTime 1e-07 
BlockDurationRaster 1e-05 
GradientRasterTime 1e-05 
Name ScanAcousticTransferFunc 
NumAverages 10 
NumGradsPerTR 20 
NumSineModulations 20 
PhysicalAxis x 
RadiofrequencyRasterTime 1e-06 
RepetitionTime 1 
TimeBetweenGrads 0.05 
TransferFuncPosBWHz 5000 
TransferFuncResHz 1 
kSpaceCenterLine 0 
kSpaceCenterPartition 0 
tGradPlateau 0 
tGradRampDown 0.0002 
tGradRampUp 0.0002 

# Format of blocks:
# NUM DUR RF  GX  GY  GZ  ADC  EXT
[BLOCKS]
   1  52   1   0   0   0  0  0
   2 4960   0   0   0   0  0  0
   3  40   0   1   0   0  0  0
   4 4960   0   0   0   0  0  0
   5  40   0   1   0   0  0  0
   6 4960   0   0   0   0  0  0
   7  40   0   1   0   0  0  0
   8 4960   0   0   0   0  0  0
   9  40   0   1   0   0  0  0
  10 4960   0   0   0   0  0  0
  11  40   0   1   0   0  0  0
  12 4960   0   0   0   0  0  0
  13  40   0   1   0   0  0  0
  14 4960   0   0   0   0  0  0
  15  40   0   1   0   0  0  0
  16 4960   0   0   0   0  0  0
  17  40   0   1   0   0  0  0
  18 4960   0   0   0   0  0  0
  19  40   0   1   0   0  0  0
  20 4960   0   0   0   0  0  0
  21  40   0   1   0   0  0  0
  22 4960   0   0   0   0  0  0
  23  40   0   1   0   0  0  0
  24 4960   0   0   0   0  0  0
  25  40   0   1   0   0  0  0
  26 4960   0   0   0   0  0  0
  27  40   0   1   0   0  0  0
  28 4960   0   0   0   0  0  0
  29  40   0   1   0   0  0  0
  30 4960   0   0   0   0  0  0
  31  40   0   1   0   0  0  0
  32 4960   0   0   0   0  0  0
  33  40   0   1   0   0  0  0
  34 4960   0   0   0   0  0  0
  35  40   0   1   0   0  0  0
  36 4960   0   0   0   0  0  0
  37  40   0   1   0   0  0  0
  38 4960   0   0   0   0  0  0
  39  40   0   1   0   0  0  0
  40 4960   0   0   0   0  0  0
  41  40   0   1   0   0  0  0
  42 4960   0   0   0   0  0  0
  43  40   0   1   0   0  0  0
  44 4960   0   0   0   0  0  0
  45  40   0   1   0   0  0  0
  46 4960   0   0   0   0  0  0
  47  40   0   1   0   0  0  0
  48 4960   0   0   0   0  0  0
  49  40   0   1   0   0  0  0
  50 4960   0   0   0   0  0  0
  51  40   0   1   0   0  0  0
  52 4960   0   0   0   0  0  0
  53  40   0   1   0   0  0  0
  54 4960   0   0   0   0  0  0
  55  40   0   1   0   0  0  0
  56 4960   0   0   0   0  0  0
  57  40   0   1   0   0  0  0
  58 4960   0   0   0   0  0  0
  59  40   0   1   0   0  0  0
  60 4960   0   0   0   0  0  0
  61  40   0   1   0   0  0  0
  62 4960   0   0   0   0  0  0
  63  40   0   1   0   0  0  0
  64 4960   0   0   0   0  0  0
  65  40   0   1   0   0  0  0
  66 4960   0   0   0   0  0  0
  67  40   0   1   0   0  0  0
  68 4960   0   0   0   0  0  0
  69  40   0   1   0   0  0  0
  70 4960   0   0   0   0  0  0
  71  40   0   1   0   0  0  0
  72 4960   0   0   0   0  0  0
  73  40   0   1   0   0  0  0
  74 4960   0   0   0   0  0  0
  75  40   0   1   0   0  0  0
  76 4960   0   0   0   0  0  0
  77  40   0   1   0   0  0  0
  78 4960   0   0   0   0  0  0
  79  40   0   1   0   0  0  0
  80 4960   0   0   0   0  0  0
  81  40   0   1   0   0  0  0
  82 4960   0   0   0   0  0  0
  83  40   0   1   0   0  0  0
  84 4960   0   0   0   0  0  0
  85  40   0   1   0   0  0  0
  86 4960   0   0   0   0  0  0
  87  40   0   1   0   0  0  0
  88 4960   0   0   0   0  0  0
  89  40   0   1   0   0  0  0
  90 4960   0   0   0   0  0  0
  91  40   0   1   0   0  0  0
  92 4960   0   0   0   0  0  0
  93  40   0   1   0   0  0  0
  94 4960   0   0   0   0  0  0
  95  40   0   1   0   0  0  0
  96 4960   0   0   0   0  0  0
  97  40   0   1   0   0  0  0
  98 4960   0   0   0   0  0  0
  99  40   0   1   0   0  0  0
 100 4960   0   0   0   0  0  0
 101  40   0   1   0   0  0  0
 102 4960   0   0   0   0  0  0
 103  40   0   1   0   0  0  0
 104 4960   0   0   0   0  0  0
 105  40   0   1   0   0  0  0
 106 4960   0   0   0   0  0  0
 107  40   0   1   0   0  0  0
 108 4960   0   0   0   0  0  0
 109  40   0   1   0   0  0  0
 110 4960   0   0   0   0  0  0
 111  40   0   1   0   0  0  0
 112 4960   0   0   0   0  0  0
 113  40   0   1   0   0  0  0
 114 4960   0   0   0   0  0  0
 115  40   0   1   0   0  0  0
 116 4960   0   0   0   0  0  0
 117  40   0   1   0   0  0  0
 118 4960   0   0   0   0  0  0
 119  40   0   1   0   0  0  0
 120 4960   0   0   0   0  0  0
 121  40   0   1   0   0  0  0
 122 4960   0   0   0   0  0  0
 123  40   0   1   0   0  0  0
 124 4960   0   0   0   0  0  0
 125  40   0   1   0   0  0  0
 126 4960   0   0   0   0  0  0
 127  40   0   1   0   0  0  0
 128 4960   0   0   0   0  0  0
 129  40   0   1   0   0  0  0
 130 4960   0   0   0   0  0  0
 131  40   0   1   0   0  0  0
 132 4960   0   0   0   0  0  0
 133  40   0   1   0   0  0  0
 134 4960   0   0   0   0  0  0
 135  40   0   1   0   0  0  0
 136 4960   0   0   0   0  0  0
 137  40   0   1   0   0  0  0
 138 4960   0   0   0   0  0  0
 139  40   0   1   0   0  0  0
 140 4960   0   0   0   0  0  0
 141  40   0   1   0   0  0  0
 142 4960   0   0   0   0  0  0
 143  40   0   1   0   0  0  0
 144 4960   0   0   0   0  0  0
 145  40   0   1   0   0  0  0
 146 4960   0   0   0   0  0  0
 147  40   0   1   0   0  0  0
 148 4960   0   0   0   0  0  0
 149  40   0   1   0   0  0  0
 150 4960   0   0   0   0  0  0
 151  40   0   1   0   0  0  0
 152 4960   0   0   0   0  0  0
 153  40   0   1   0   0  0  0
 154 4960   0   0   0   0  0  0
 155  40   0   1   0   0  0  0
 156 4960   0   0   0   0  0  0
 157  40   0   1   0   0  0  0
 158 4960   0   0   0   0  0  0
 159  40   0   1   0   0  0  0
 160 4960   0   0   0   0  0  0
 161  40   0   1   0   0  0  0
 162 4960   0   0   0   0  0  0
 163  40   0   1   0   0  0  0
 164 4960   0   0   0   0  0  0
 165  40   0   1   0   0  0  0
 166 4960   0   0   0   0  0  0
 167  40   0   1   0   0  0  0
 168 4960   0   0   0   0  0  0
 169  40   0   1   0   0  0  0
 170 4960   0   0   0   0  0  0
 171  40   0   1   0   0  0  0
 172 4960   0   0   0   0  0  0
 173  40   0   1   0   0  0  0
 174 4960   0   0   0   0  0  0
 175  40   0   1   0   0  0  0
 176 4960   0   0   0   0  0  0
 177  40   0   1   0   0  0  0
 178 4960   0   0   0   0  0  0
 179  40   0   1   0   0  0  0
 180 4960   0   0   0   0  0  0
 181  40   0   1   0   0  0  0
 182 4960   0   0   0   0  0  0
 183  40   0   1   0   0  0  0
 184 4960   0   0   0   0  0  0
 185  40   0   1   0   0  0  0
 186 4960   0   0   0   0  0  0
 187  40   0   1   0   0  0  0
 188 4960   0   0   0   0  0  0
 189  40   0   1   0   0  0  0
 190 4960   0   0   0   0  0  0
 191  40   0   1   0   0  0  0
 192 4960   0   0   0   0  0  0
 193  40   0   1   0   0  0  0
 194 4960   0   0   0   0  0  0
 195  40   0   1   0   0  0  0
 196 4960   0   0   0   0  0  0
 197  40   0   1   0   0  0  0
 198 4960   0   0   0   0  0  0
 199  40   0   1   0   0  0  0
 200 4960   0   0   0   0  0  0
 201  40   0   1   0   0  0  0
 202 4960   0   0   0   0  0  0
 203  40   0   1   0   0  0  0
 204 4960   0   0   0   0  0  0
 205  40   0   1   0   0  0  0
 206 4960   0   0   0   0  0  0
 207  40   0   1   0   0  0  0
 208 4960   0   0   0   0  0  0
 209  40   0   1   0   0  0  0
 210 4960   0   0   0   0  0  0
 211  40   0   1   0   0  0  0
 212 4960   0   0   0   0  0  0
 213  40   0   1   0   0  0  0
 214 4960   0   0   0   0  0  0
 215  40   0   1   0   0  0  0
 216 4960   0   0   0   0  0  0
 217  40   0   1   0   0  0  0
 218 4960   0   0   0   0  0  0
 219  40   0   1   0   0  0  0
 220 4960   0   0   0   0  0  0
 221  40   0   1   0   0  0  0
 222 4960   0   0   0   0  0  0
 223  40   0   1   0   0  0  0
 224 4960   0   0   0   0  0  0
 225  40   0   1   0   0  0  0
 226 4960   0   0   0   0  0  0
 227  40   0   1   0   0  0  0
 228 4960   0   0   0   0  0  0
 229  40   0   1   0   0  0  0
 230 4960   0   0   0   0  0  0
 231  40   0   1   0   0  0  0
 232 4960   0   0   0   0  0  0
 233  40   0   1   0   0  0  0
 234 4960   0   0   0   0  0  0
 235  40   0   1   0   0  0  0
 236 4960   0   0   0   0  0  0
 237  40   0   1   0   0  0  0
 238 4960   0   0   0   0  0  0
 239  40   0   1   0   0  0  0
 240 4960   0   0   0   0  0  0
 241  40   0   1   0   0  0  0
 242 4960   0   0   0   0  0  0
 243  40   0   1   0   0  0  0
 244 4960   0   0   0   0  0  0
 245  40   0   1   0   0  0  0
 246 4960   0   0   0   0  0  0
 247  40   0   1   0   0  0  0
 248 4960   0   0   0   0  0  0
 249  40   0   1   0   0  0  0
 250 4960   0   0   0   0  0  0
 251  40   0   1   0   0  0  0
 252 4960   0   0   0   0  0  0
 253  40   0   1   0   0  0  0
 254 4960   0   0   0   0  0  0
 255  40   0   1   0   0  0  0
 256 4960   0   0   0   0  0  0
 257  40   0   1   0   0  0  0
 258 4960   0   0   0   0  0  0
 259  40   0   1   0   0  0  0
 260 4960   0   0   0   0  0  0
 261  40   0   1   0   0  0  0
 262 4960   0   0   0   0  0  0
 263  40   0   1   0   0  0  0
 264 4960   0   0   0   0  0  0
 265  40   0   1   0   0  0  0
 266 4960   0   0   0   0  0  0
 267  40   0   1   0   0  0  0
 268 4960   0   0   0   0  0  0
 269  40   0   1   0   0  0  0
 270 4960   0   0   0   0  0  0
 271  40   0   1   0   0  0  0
 272 4960   0   0   0   0  0  0
 273  40   0   1   0   0  0  0
 274 4960   0   0   0   0  0  0
 275  40   0   1   0   0  0  0
 276 4960   0   0   0   0  0  0
 277  40   0   1   0   0  0  0
 278 4960   0   0   0   0  0  0
 279  40   0   1   0   0  0  0
 280 4960   0   0   0   0  0  0
 281  40   0   1   0   0  0  0
 282 4960   0   0   0   0  0  0
 283  40   0   1   0   0  0  0
 284 4960   0   0   0   0  0  0
 285  40   0   1   0   0  0  0
 286 4960   0   0   0   0  0  0
 287  40   0   1   0   0  0  0
 288 4960   0   0   0   0  0  0
 289  40   0   1   0   0  0  0
 290 4960   0   0   0   0  0  0
 291  40   0   1   0   0  0  0
[RF]
1      6.94444 1 2 3 100 0 0

# Format of trapezoid gradients:
# id amplitude rise flat fall delay
# ..      Hz/m   us   us   us    us
[TRAP]
 1  1.70302e+06 200    0 200   0
 2  1.61967e+06 200    0 200   0
 3  1.37777e+06 200    0 200   0
 4  1.00101e+06 200    0 200   0
 5       526263 200    0 200   0
 6            0 200    0 200   0
 7      -526263 200    0 200   0
 8 -1.00101e+06 200    0 200   0
 9 -1.37777e+06 200    0 200   0
10 -1.61967e+06 200    0 200   0
11 -1.70302e+06 200    0 200   0

# Sequence Shapes
[SHAPES]

shape_id 1
num_samples 2
1
1

shape_id 2
num_samples 2
0
0

shape_id 3
num_samples 2
0
400


[SIGNATURE]
# This is the hash of the Pulseq file, calculated right before the [SIGNATURE] section was added
# It can be reproduced/verified with md5sum if the file trimmed to the position right above [SIGNATURE]
# The new line character preceding [SIGNATURE] BELONGS to the signature (and needs to be sripped away for recalculating/verification)
Type md5
Hash 21781e050a988e111557639dba551bdb
